SV# PRN# Semi-major axis [km] Eccentricity [-] Inclination [deg] RAAN [deg] Arg. of Perigee [deg] Mean Anomaly [deg] 
1 111 29600.318 0.00 56.00 0.00 0.00 0.00
2 112 29600.318 0.00 56.00 0.00 0.00 40.00
3 113 29600.318 0.00 56.00 0.00 0.00 80.00
4 114 29600.318 0.00 56.00 0.00 0.00 120.00
5 115 29600.318 0.00 56.00 0.00 0.00 160.00
6 116 29600.318 0.00 56.00 0.00 0.00 200.00
7 117 29600.318 0.00 56.00 0.00 0.00 240.00
8 118 29600.318 0.00 56.00 0.00 0.00 280.00
9 119 29600.318 0.00 56.00 0.00 0.00 320.00
10 121 29600.318 0.00 56.00 120.00 0.00 13.33
11 122 29600.318 0.00 56.00 120.00 0.00 53.33
12 123 29600.318 0.00 56.00 120.00 0.00 93.33
13 124 29600.318 0.00 56.00 120.00 0.00 133.33
14 125 29600.318 0.00 56.00 120.00 0.00 173.33
15 126 29600.318 0.00 56.00 120.00 0.00 213.33
16 127 29600.318 0.00 56.00 120.00 0.00 253.33
17 128 29600.318 0.00 56.00 120.00 0.00 293.33
18 129 29600.318 0.00 56.00 120.00 0.00 333.33
19 131 29600.318 0.00 56.00 240.00 0.00 26.66
20 132 29600.318 0.00 56.00 240.00 0.00 66.66
21 133 29600.318 0.00 56.00 240.00 0.00 106.66
22 134 29600.318 0.00 56.00 240.00 0.00 146.66
23 135 29600.318 0.00 56.00 240.00 0.00 186.66
24 136 29600.318 0.00 56.00 240.00 0.00 226.66
25 137 29600.318 0.00 56.00 240.00 0.00 266.66
26 138 29600.318 0.00 56.00 240.00 0.00 306.66
27 139 29600.318 0.00 56.00 240.00 0.00 346.66 